"Time, s","Climb, m/s","Specific excess power, m/s",RPM,"Propeller efficiency, %","Manifold pressure, atm","Power, hp","Thrust, kgf","Propeller pitch, deg","Propeller pitch, %","IAS, km/h","TAS, km/h","Altitude, m",Mach number,"Specific energy, J/kg","Acceleration, m/s²","Turn rate, deg/s"
0.0,-72.1,-31.8,3001,68,1.79,2027,523,43.5,100,714,719,139,0.59,21308.1,2.23,13.4
0.1,-68.8,-32.1,3001,68,1.79,2027,524,43.5,100,715,719,134,0.59,21259.0,2.19,15.3
0.2,-64.5,-32.3,3001,68,1.79,2026,523,43.5,100,716,720,127,0.59,21245.9,2.15,14.5
0.3,-60.3,-33.2,3000,68,1.80,2026,522,43.5,100,716,720,120,0.59,21177.2,2.03,14.8
0.4,-56.3,-34.1,3000,68,1.80,2026,520,43.5,100,717,721,114,0.59,21173.9,1.92,13.2
0.5,-52.7,-34.8,3000,67,1.80,2026,519,43.5,100,717,721,108,0.59,21115.1,1.82,12.4
0.6,-50.1,-34.5,3000,67,1.80,2025,518,43.6,100,717,721,104,0.59,21075.8,1.73,11.4
0.7,-46.9,-34.1,3000,67,1.80,2025,518,43.6,100,718,721,99,0.59,21026.8,1.65,11.9
0.8,-43.4,-33.9,3000,67,1.80,2026,518,43.6,100,718,721,94,0.59,20977.7,1.58,12.0
0.9,-39.9,-34.5,3000,68,1.80,2027,520,43.6,100,718,721,90,0.59,20938.5,1.42,13.1
1.0,-35.5,-35.0,3000,68,1.80,2027,521,43.6,100,718,721,86,0.59,20899.3,1.28,15.5
1.1,-31.6,-35.5,2999,68,1.80,2027,522,43.6,100,718,721,83,0.59,20869.8,1.15,16.5
1.2,-26.6,-36.5,2999,68,1.80,2027,522,43.5,100,718,720,80,0.59,20784.8,0.94,15.8
1.3,-22.3,-37.4,2999,68,1.80,2027,522,43.5,100,717,720,78,0.59,20765.2,0.76,14.0
1.4,-18.4,-38.2,2999,68,1.80,2027,521,43.5,100,717,720,76,0.59,20745.6,0.59,12.4
1.5,-15.2,-37.8,2999,67,1.80,2027,521,43.5,100,717,719,74,0.59,20670.4,0.44,10.4
1.6,-12.8,-37.4,2998,67,1.80,2027,521,43.5,100,716,719,72,0.59,20650.8,0.30,8.2
1.7,-10.6,-37.0,2998,68,1.80,2026,522,43.5,100,716,718,71,0.59,20585.6,0.18,9.1
1.8,-8.2,-36.0,2998,68,1.80,2026,524,43.4,100,715,718,70,0.58,20575.7,0.07,11.8
1.9,-4.4,-35.1,2998,68,1.80,2026,526,43.4,100,715,717,70,0.58,20520.4,-0.03,13.5
2.0,-0.3,-34.3,2998,68,1.80,2026,527,43.4,100,714,716,69,0.58,20455.3,-0.12,13.8
2.1,3.6,-34.2,2998,68,1.80,2026,528,43.4,100,713,716,70,0.58,20465.1,-0.29,13.2
2.2,7.7,-34.1,2998,68,1.80,2025,529,43.3,100,712,715,70,0.58,20409.9,-0.44,14.0
2.3,11.0,-34.1,2998,68,1.80,2025,530,43.3,100,712,714,71,0.58,20364.6,-0.58,14.1
2.4,16.0,-34.7,2998,68,1.80,2025,532,43.3,100,710,713,73,0.58,20329.1,-0.80,14.1
2.5,19.1,-35.2,2997,68,1.80,2025,533,43.2,100,709,712,74,0.58,20284.0,-1.00,13.2
2.6,23.0,-35.6,2997,69,1.80,2024,535,43.2,100,708,711,76,0.58,20248.7,-1.17,13.5
2.7,26.7,-35.0,2997,69,1.80,2024,536,43.1,100,707,710,79,0.58,20223.3,-1.33,13.0
2.8,30.4,-34.3,2997,69,1.80,2024,538,43.1,100,706,709,82,0.58,20198.0,-1.48,13.3
2.9,34.2,-33.8,2997,69,1.80,2023,540,43.0,100,705,708,85,0.58,20172.7,-1.60,13.6
3.0,37.3,-32.2,2997,69,1.80,2023,541,43.0,100,704,707,88,0.58,20147.6,-1.72,14.1
3.1,41.3,-30.7,2997,69,1.80,2023,543,43.0,100,702,705,92,0.57,20077.9,-1.82,13.6
3.2,44.9,-29.5,2997,69,1.80,2023,545,42.9,100,701,704,97,0.57,20072.6,-1.92,12.7
3.3,48.3,-30.8,2997,69,1.80,2023,547,42.8,100,699,702,103,0.57,20022.9,-2.19,10.0
3.4,50.3,-32.1,2997,69,1.80,2024,549,42.8,100,698,701,107,0.57,20008.0,-2.43,9.9
3.5,52.8,-33.2,2997,70,1.80,2025,552,42.7,100,696,700,112,0.57,20003.0,-2.65,10.6
3.6,55.9,-31.6,2997,70,1.80,2026,556,42.7,100,694,698,118,0.57,19954.0,-2.75,12.5
3.7,59.3,-30.1,2996,70,1.79,2026,559,42.6,100,693,697,124,0.57,19959.1,-2.84,13.3
3.8,62.1,-28.7,2996,70,1.79,2026,562,42.6,100,691,695,129,0.57,19900.7,-2.92,13.6
3.9,65.6,-26.5,2996,71,1.79,2027,564,42.5,100,689,694,136,0.57,19915.8,-3.00,12.8
4.0,68.6,-24.6,2996,71,1.79,2027,566,42.5,100,687,692,143,0.56,19877.5,-3.07,11.4
4.1,70.5,-22.8,2996,71,1.79,2027,567,42.4,100,686,691,148,0.56,19873.2,-3.13,9.2
4.2,72.8,-22.2,2996,71,1.79,2028,570,42.3,100,684,689,157,0.56,19855.0,-3.28,8.8
4.3,74.2,-21.7,2996,71,1.79,2028,572,42.3,100,682,688,163,0.56,19860.8,-3.41,7.7
4.4,75.8,-21.2,2996,71,1.78,2028,575,42.2,100,680,686,171,0.56,19833.2,-3.53,8.3
4.5,77.5,-20.2,2996,71,1.78,2028,578,42.1,100,678,684,179,0.56,19806.0,-3.63,7.3
4.6,78.7,-19.3,2996,71,1.78,2029,581,42.1,100,676,682,187,0.56,19779.1,-3.73,5.8
4.7,79.5,-18.5,2996,72,1.78,2029,583,42.0,100,674,681,196,0.56,19814.8,-3.82,5.7
4.8,80.3,-17.5,2996,72,1.78,2029,586,42.0,100,673,679,202,0.55,19768.7,-3.90,7.3
4.9,82.0,-16.6,2996,72,1.78,2030,590,41.9,100,671,678,211,0.55,19804.6,-3.97,8.9
5.0,83.5,-15.8,2996,72,1.78,2030,592,41.8,100,669,676,218,0.55,19768.8,-4.04,8.7
5.1,85.5,-12.8,2996,72,1.77,2030,596,41.8,100,667,675,226,0.55,19795.2,-4.00,9.1
5.2,87.5,-10.0,2996,72,1.77,2031,599,41.7,100,665,673,237,0.55,19799.1,-3.97,8.1
5.3,88.6,-7.5,2996,73,1.77,2031,601,41.6,100,664,671,245,0.55,19773.9,-3.94,6.5
5.4,89.3,-6.6,2996,73,1.77,2031,603,41.6,100,662,670,252,0.55,19790.8,-4.01,5.3
5.5,90.2,-5.9,2996,73,1.77,2031,605,41.5,100,660,668,261,0.55,19775.8,-4.08,5.9
5.6,91.1,-5.1,2996,73,1.76,2032,608,41.4,100,658,666,273,0.54,19790.6,-4.13,4.1
5.7,91.4,-4.2,2996,73,1.76,2032,611,41.4,100,656,665,282,0.54,19827.6,-4.18,2.4
5.8,91.4,-3.3,2996,73,1.76,2032,613,41.3,100,654,663,290,0.54,19803.6,-4.22,1.3
5.9,91.1,-2.5,2996,73,1.76,2033,616,41.3,100,652,662,299,0.54,19840.8,-4.26,0.0
6.0,90.8,-1.8,2996,73,1.76,2033,618,41.2,100,651,660,309,0.54,19836.8,-4.30,0.0
6.1,90.6,-1.2,2997,73,1.75,2033,621,41.1,100,649,659,318,0.54,19874.2,-4.33,0.0
6.2,90.3,-0.6,2997,74,1.75,2033,624,41.1,100,647,657,328,0.54,19870.8,-4.36,0.0
6.3,90.3,1.7,2997,74,1.75,2034,626,41.0,100,646,656,335,0.54,19888.8,-4.29,2.1
6.4,90.1,3.8,2997,74,1.75,2034,629,41.0,100,644,655,345,0.54,19936.3,-4.23,0.0
6.5,90.4,5.6,2997,74,1.75,2034,632,40.9,100,642,653,354,0.53,19923.7,-4.17,5.3
6.6,92.2,5.8,2997,75,1.74,2034,637,40.8,100,640,651,365,0.53,19931.0,-4.21,9.2
6.7,93.8,5.9,2997,75,1.74,2035,640,40.8,100,639,650,373,0.53,19959.3,-4.25,10.0
6.8,95.4,6.1,2997,75,1.74,2035,643,40.8,100,637,649,381,0.53,19987.7,-4.29,10.2
6.9,97.6,10.1,2997,75,1.74,2035,646,40.7,100,635,648,391,0.53,20035.7,-4.14,11.5
7.0,100.4,13.8,2997,75,1.74,2035,649,40.6,100,633,646,403,0.53,20053.6,-4.00,10.9
7.1,102.3,17.1,2996,75,1.73,2036,651,40.6,100,631,644,414,0.53,20062.0,-3.88,9.8
7.3,103.5,17.4,2996,75,1.73,2036,652,40.5,100,630,643,423,0.53,20100.6,-3.95,7.6
7.4,104.1,17.6,2996,75,1.73,2036,653,40.5,100,629,642,431,0.53,20129.5,-4.01,4.4
7.5,104.2,17.9,2996,75,1.73,2036,655,40.4,100,626,640,444,0.52,20158.1,-4.07,0.0
7.6,104.0,19.8,2996,75,1.73,2037,657,40.3,100,625,639,453,0.52,20197.1,-4.03,0.0
7.7,103.7,21.6,2997,75,1.72,2037,659,40.3,100,623,637,464,0.52,20206.5,-4.00,0.0
7.8,103.5,23.2,2997,75,1.72,2037,662,40.2,100,621,636,475,0.52,20265.3,-3.96,0.0
7.9,103.3,23.0,2997,76,1.72,2037,665,40.2,100,620,634,485,0.52,20265.4,-4.03,0.0
8.0,103.1,22.8,2997,76,1.72,2037,668,40.1,100,618,633,496,0.52,20324.4,-4.08,0.0
8.1,102.9,22.6,2997,76,1.72,2038,670,40.1,100,616,632,507,0.52,20383.5,-4.13,0.0
8.2,102.6,24.0,2997,76,1.71,2038,673,40.0,100,615,630,517,0.52,20384.3,-4.09,0.0
8.3,102.4,25.3,2997,76,1.71,2038,674,40.0,100,613,629,526,0.52,20424.0,-4.05,0.0
8.4,102.2,26.4,2997,76,1.71,2038,677,39.9,100,612,628,537,0.51,20483.4,-4.01,0.0
8.5,101.9,29.1,2997,76,1.71,2038,679,39.9,100,610,627,547,0.51,20533.1,-3.89,0.0
8.6,101.7,31.5,2997,76,1.70,2038,681,39.8,100,609,625,558,0.51,20544.4,-3.77,0.0
8.7,101.4,33.7,2997,76,1.70,2038,683,39.8,100,607,624,568,0.51,20594.3,-3.67,0.0
8.8,101.2,33.9,2997,77,1.70,2039,685,39.7,100,606,623,577,0.51,20634.5,-3.67,0.0
8.9,101.0,34.1,2997,77,1.70,2039,687,39.7,100,605,622,587,0.51,20684.6,-3.67,0.0
9.0,100.7,34.3,2997,77,1.70,2039,690,39.6,100,603,621,598,0.51,20744.5,-3.68,0.0
9.1,100.5,36.1,2998,77,1.69,2039,692,39.6,100,602,620,608,0.51,20794.7,-3.58,0.0
9.2,100.3,37.7,2998,77,1.69,2039,694,39.5,100,600,618,619,0.51,20807.1,-3.50,0.0
9.3,100.2,39.1,2998,77,1.69,2039,695,39.5,100,599,618,627,0.51,20885.6,-3.43,0.0
9.4,99.9,38.8,2998,77,1.69,2039,697,39.4,100,598,616,640,0.51,20917.9,-3.45,0.0
9.5,99.7,38.5,2998,77,1.69,2039,699,39.4,100,596,615,648,0.50,20948.9,-3.48,0.0
9.6,99.6,38.2,2998,77,1.68,2039,701,39.4,100,595,614,658,0.50,20999.6,-3.50,0.0
9.7,99.4,39.5,2998,77,1.68,2039,703,39.3,100,594,613,669,0.50,21060.2,-3.42,0.0
9.8,99.2,40.7,2998,77,1.68,2040,705,39.3,100,593,612,679,0.50,21111.0,-3.36,0.0
9.9,99.0,41.8,2998,77,1.68,2040,706,39.2,100,591,611,689,0.50,21161.9,-3.30,0.0
10.0,98.8,42.7,2998,77,1.68,2040,708,39.2,100,590,610,700,0.50,21222.7,-3.24,0.0
10.1,98.6,43.5,2998,77,1.67,2040,710,39.2,100,589,609,710,0.50,21273.8,-3.20,0.0
10.2,98.5,44.3,2998,78,1.67,2040,711,39.1,100,588,609,718,0.50,21352.3,-3.15,0.0
10.3,98.3,46.5,2998,78,1.67,2040,713,39.1,100,587,608,729,0.50,21413.2,-3.02,0.0
10.4,98.2,48.6,2998,78,1.67,2040,714,39.1,100,586,607,737,0.50,21444.8,-2.90,0.0
10.5,98.0,50.4,2998,78,1.67,2040,716,39.0,100,584,606,749,0.50,21515.7,-2.79,0.0
10.6,97.8,50.4,2998,78,1.66,2040,718,39.0,100,583,605,759,0.50,21567.1,-2.79,0.0
10.7,97.7,50.4,2998,78,1.66,2040,719,39.0,100,582,604,767,0.50,21599.0,-2.79,0.0
10.8,97.6,50.4,2998,78,1.66,2040,720,38.9,100,581,603,777,0.50,21650.5,-2.79,0.0
10.9,97.5,52.0,2998,78,1.66,2040,722,38.9,100,580,603,788,0.50,21758.4,-2.69,0.0
11.0,97.3,53.4,2998,78,1.66,2040,723,38.9,100,579,602,798,0.49,21810.0,-2.61,0.0
11.1,97.2,54.7,2998,78,1.65,2040,725,38.8,100,578,601,808,0.49,21861.7,-2.53,0.0
11.2,97.1,54.2,2998,78,1.65,2040,726,38.8,100,577,600,816,0.49,21893.8,-2.55,0.0
11.3,96.9,53.8,2998,78,1.65,2040,728,38.8,100,576,599,828,0.49,21965.3,-2.57,0.0
11.4,96.8,53.4,2998,78,1.65,2040,729,38.8,100,575,599,838,0.49,22063.4,-2.59,0.0
11.5,96.7,54.7,2998,78,1.65,2040,730,38.7,100,574,598,848,0.49,22115.3,-2.52,0.0
11.6,96.6,55.8,2998,78,1.64,2040,731,38.7,100,573,597,856,0.49,22147.7,-2.45,0.0
11.7,96.5,56.8,2998,78,1.64,2040,733,38.7,100,572,597,866,0.49,22245.8,-2.39,0.0
11.8,96.4,57.6,2999,78,1.64,2040,734,38.6,100,571,596,874,0.49,22278.3,-2.33,0.0
11.9,96.4,58.4,2999,78,1.64,2040,735,38.6,100,570,595,885,0.49,22340.2,-2.28,0.0
12.0,96.2,59.1,2999,78,1.64,2040,736,38.6,100,569,595,895,0.49,22438.3,-2.24,0.0
12.1,96.2,59.7,2999,78,1.63,2039,737,38.6,100,568,594,905,0.49,22490.6,-2.20,0.0
12.2,96.1,60.2,2999,78,1.63,2039,738,38.5,100,568,593,913,0.49,22523.2,-2.16,0.8
12.3,96.0,60.7,2999,79,1.63,2039,740,38.5,100,567,593,925,0.49,22641.0,-2.13,0.0
12.4,96.0,61.2,2999,79,1.63,2039,741,38.5,100,566,592,933,0.49,22673.7,-2.10,0.0
12.5,95.9,61.6,2999,79,1.63,2039,742,38.5,100,565,591,943,0.49,22726.2,-2.07,0.0
12.6,95.9,62.0,2999,79,1.63,2039,742,38.5,100,564,591,951,0.49,22804.7,-2.05,0.0
12.7,95.8,62.3,2999,79,1.62,2039,744,38.4,100,563,590,963,0.49,22876.8,-2.03,0.0
12.8,95.7,62.5,2999,79,1.62,2039,745,38.4,100,562,590,973,0.49,22974.9,-2.01,0.0
12.9,95.6,62.7,2999,79,1.62,2039,746,38.4,100,562,589,982,0.48,23017.7,-2.00,0.0
13.0,95.6,63.0,2999,79,1.62,2039,747,38.4,100,561,588,990,0.48,23050.8,-1.98,0.0
13.1,95.5,63.2,2999,79,1.62,2039,748,38.3,100,560,588,1000,0.48,23148.9,-1.97,0.0
13.2,95.4,63.3,2999,79,1.61,2038,749,38.3,100,559,587,1010,0.48,23201.7,-1.95,0.0
13.3,95.4,65.0,2999,79,1.61,2038,750,38.3,100,558,587,1020,0.48,23299.8,-1.85,0.0
13.4,95.3,66.5,2999,79,1.61,2038,750,38.3,100,558,586,1030,0.48,23352.6,-1.76,0.0
13.5,95.3,67.9,2999,79,1.61,2038,751,38.3,100,557,586,1038,0.48,23431.1,-1.67,0.0
13.6,95.2,67.6,2999,79,1.61,2038,752,38.2,100,556,585,1048,0.48,23484.0,-1.69,0.0
13.7,95.1,67.3,2999,79,1.60,2038,753,38.2,100,555,585,1058,0.48,23582.1,-1.71,0.0
13.8,95.0,67.0,2999,79,1.60,2038,754,38.2,100,555,584,1070,0.48,23654.7,-1.72,0.0
13.9,95.0,68.3,2999,79,1.60,2037,755,38.2,100,554,584,1078,0.48,23733.2,-1.64,0.0
14.0,94.9,69.4,2999,79,1.60,2037,755,38.2,100,553,583,1088,0.48,23786.3,-1.57,0.0
14.1,94.8,70.5,2999,79,1.60,2037,756,38.1,100,553,583,1096,0.48,23864.8,-1.50,0.0
14.2,94.7,69.9,2999,79,1.60,2037,757,38.1,100,552,582,1107,0.48,23927.7,-1.54,0.0
14.3,94.7,69.3,2999,79,1.59,2037,757,38.1,100,551,582,1115,0.48,24006.2,-1.57,0.0
14.4,94.6,68.8,2999,79,1.59,2037,758,38.1,100,550,581,1125,0.48,24059.4,-1.59,0.0
14.5,94.5,69.9,2999,79,1.59,2036,759,38.1,100,550,581,1135,0.48,24157.5,-1.53,0.0
14.6,94.4,70.8,2999,79,1.59,2036,760,38.1,100,549,580,1145,0.48,24210.8,-1.47,0.0
14.7,94.3,71.7,2999,79,1.59,2036,760,38.0,100,548,580,1155,0.48,24308.9,-1.41,0.0
14.8,94.2,72.4,2999,79,1.58,2036,761,38.0,100,548,580,1165,0.48,24407.0,-1.36,0.0
14.9,94.2,73.1,2999,79,1.58,2036,762,38.0,100,547,579,1172,0.48,24431.0,-1.32,0.0
15.0,94.1,73.7,2999,79,1.58,2035,762,38.0,100,547,579,1180,0.48,24509.5,-1.28,0.0
15.1,94.0,72.7,2999,79,1.58,2035,763,38.0,100,546,578,1192,0.48,24582.6,-1.33,0.0
15.2,93.9,71.8,2999,79,1.58,2035,763,38.0,100,545,578,1202,0.48,24680.7,-1.39,0.0
15.3,93.8,71.0,2999,79,1.58,2035,764,38.0,100,545,578,1212,0.48,24778.8,-1.43,0.0
15.4,93.7,71.8,2999,79,1.57,2034,764,37.9,100,544,577,1219,0.48,24802.9,-1.38,0.0
15.5,93.6,72.5,2999,79,1.57,2034,765,37.9,100,543,577,1229,0.48,24901.0,-1.33,0.0
15.6,93.6,73.1,2999,79,1.57,2034,766,37.9,100,543,577,1239,0.48,24999.1,-1.29,0.0
15.7,93.6,73.6,2999,79,1.57,2034,766,37.9,100,542,576,1249,0.48,25052.7,-1.26,0.0
15.8,93.5,74.1,2999,79,1.57,2033,767,37.9,100,542,576,1258,0.48,25141.0,-1.22,0.0
15.9,93.4,74.6,2999,79,1.56,2033,767,37.9,100,541,576,1268,0.48,25239.1,-1.19,0.0
16.0,93.3,74.9,2999,79,1.56,2033,767,37.9,100,541,575,1276,0.48,25273.2,-1.16,0.0
16.1,93.2,75.3,2999,79,1.56,2033,768,37.9,100,540,575,1286,0.47,25371.3,-1.14,0.0
16.2,93.2,75.6,2999,79,1.56,2032,768,37.8,100,539,575,1295,0.47,25459.5,-1.12,0.0
16.3,93.2,75.9,2999,79,1.56,2032,769,37.8,100,539,574,1305,0.47,25513.3,-1.10,0.0
16.4,93.1,76.1,2999,79,1.56,2032,769,37.8,100,538,574,1313,0.47,25591.8,-1.08,0.0
16.5,93.1,76.3,2999,79,1.55,2032,770,37.8,100,538,574,1322,0.47,25680.1,-1.06,0.0
16.6,93.0,76.5,2999,79,1.55,2031,770,37.8,100,537,573,1334,0.47,25753.6,-1.05,0.0
16.7,93.0,76.6,2999,79,1.55,2031,771,37.8,100,537,573,1342,0.47,25832.0,-1.04,0.0
16.8,92.9,76.8,2999,79,1.55,2031,771,37.8,100,536,573,1352,0.47,25930.1,-1.03,0.0
16.9,92.9,76.9,2999,79,1.55,2031,771,37.8,100,536,572,1361,0.47,25974.3,-1.01,0.0
17.0,92.8,77.0,2999,79,1.55,2030,772,37.8,100,535,572,1369,0.47,26052.7,-1.00,0.0
17.1,92.8,77.1,3000,79,1.54,2030,772,37.8,100,535,572,1379,0.47,26150.8,-1.00,0.0
17.2,92.8,78.7,3000,79,1.54,2030,772,37.7,100,534,572,1390,0.47,26258.7,-0.90,0.0
17.3,92.7,80.1,3000,79,1.54,2029,773,37.7,100,534,571,1398,0.47,26293.1,-0.81,0.0
17.4,92.7,81.4,3000,79,1.54,2029,773,37.7,100,533,571,1408,0.47,26391.2,-0.73,0.0
17.5,92.7,81.0,3000,79,1.54,2029,773,37.7,100,533,571,1417,0.47,26479.5,-0.75,0.0
17.6,92.6,80.7,3000,79,1.53,2028,774,37.7,100,532,571,1427,0.47,26577.6,-0.76,0.0
17.7,92.6,80.4,3000,80,1.53,2028,774,37.7,100,532,570,1437,0.47,26631.7,-0.78,0.0
17.8,92.6,80.1,3000,80,1.53,2028,774,37.7,100,531,570,1444,0.47,26700.4,-0.79,0.0
17.9,92.5,79.9,3000,80,1.53,2027,774,37.7,100,531,570,1454,0.47,26798.5,-0.81,0.0
18.0,92.5,79.7,3000,80,1.53,2027,775,37.7,100,530,570,1465,0.47,26906.4,-0.82,0.0
18.1,92.5,79.5,3000,80,1.53,2027,775,37.7,100,530,569,1475,0.47,26960.5,-0.83,0.0
18.2,92.4,79.3,3000,80,1.52,2026,775,37.7,100,530,569,1483,0.47,27039.0,-0.84,0.0
18.3,92.4,79.1,3000,80,1.52,2026,775,37.7,100,529,569,1490,0.47,27107.7,-0.84,0.0
18.4,92.4,80.5,3000,80,1.52,2026,776,37.7,100,529,569,1502,0.47,27225.4,-0.76,0.0
18.5,92.3,81.7,3000,80,1.52,2025,776,37.6,100,528,569,1510,0.47,27303.9,-0.68,0.0
18.6,92.3,82.7,3000,80,1.52,2025,776,37.6,100,528,568,1521,0.47,27367.9,-0.62,0.0
18.7,92.3,82.2,3000,80,1.52,2025,776,37.6,100,527,568,1529,0.47,27446.4,-0.65,0.0
18.8,92.2,81.7,3000,80,1.51,2024,776,37.6,100,527,568,1537,0.47,27524.9,-0.67,0.0
18.9,92.2,81.3,3000,80,1.51,2024,776,37.6,100,526,568,1548,0.47,27632.8,-0.70,0.0
19.0,92.2,82.4,3000,80,1.51,2023,777,37.6,100,526,568,1556,0.47,27711.3,-0.63,0.0
19.1,92.1,83.4,3000,80,1.51,2023,777,37.6,100,526,567,1567,0.47,27775.4,-0.57,0.0
19.2,92.1,84.3,3000,80,1.51,2023,777,37.6,100,525,567,1575,0.47,27853.9,-0.51,0.0
19.3,92.1,83.6,3000,80,1.51,2022,777,37.6,100,525,567,1583,0.47,27932.4,-0.55,0.0
19.4,92.0,82.9,3000,80,1.50,2022,777,37.6,100,524,567,1594,0.47,28040.3,-0.59,0.0
19.5,92.0,82.4,3000,80,1.50,2021,777,37.6,100,524,567,1604,0.47,28138.4,-0.62,0.0
19.6,92.0,81.9,3000,80,1.50,2021,777,37.6,100,524,566,1613,0.47,28182.9,-0.65,0.0
19.7,92.0,81.4,3000,80,1.50,2021,778,37.6,100,523,566,1621,0.47,28261.4,-0.68,0.0
19.8,92.0,81.0,3000,80,1.50,2020,778,37.6,100,523,566,1631,0.47,28359.5,-0.70,0.0
19.9,92.0,82.1,3000,80,1.49,2020,778,37.6,100,522,566,1640,0.47,28447.8,-0.63,0.0
20.0,91.9,83.1,3000,80,1.49,2019,778,37.6,100,522,566,1650,0.47,28545.9,-0.57,0.0
20.1,91.9,84.0,3000,80,1.49,2019,778,37.6,100,522,566,1659,0.47,28634.2,-0.51,0.0
20.2,91.9,83.3,3000,80,1.49,2019,778,37.6,100,521,565,1667,0.47,28669.1,-0.55,0.0
20.3,91.9,82.7,3000,80,1.49,2018,778,37.5,100,521,565,1677,0.47,28767.2,-0.59,0.0
20.4,91.9,82.1,3000,80,1.49,2018,778,37.5,100,520,565,1686,0.47,28855.4,-0.62,0.0
20.5,91.8,83.1,3000,80,1.48,2017,778,37.5,100,520,565,1696,0.47,28953.5,-0.56,0.0
20.6,91.9,84.0,3000,80,1.48,2017,778,37.5,100,520,565,1705,0.47,29041.8,-0.50,0.0
20.7,91.9,84.8,3000,80,1.48,2016,778,37.5,100,519,565,1715,0.47,29139.9,-0.45,0.0
20.8,91.9,85.5,3000,80,1.48,2016,778,37.5,100,519,565,1723,0.47,29218.4,-0.41,0.0
20.9,91.8,86.1,3000,80,1.48,2015,778,37.5,100,518,564,1734,0.47,29282.8,-0.37,0.0
21.0,91.8,86.7,3000,80,1.48,2015,778,37.5,100,518,564,1744,0.47,29380.9,-0.33,0.0
21.1,91.8,85.7,3000,80,1.47,2015,778,37.5,100,518,564,1751,0.47,29449.5,-0.39,0.0
21.2,91.8,84.9,3000,80,1.47,2014,779,37.5,100,517,564,1761,0.47,29547.6,-0.44,0.0
21.3,91.8,84.1,3000,80,1.47,2014,779,37.5,100,517,564,1770,0.47,29635.9,-0.49,0.0
21.4,91.8,84.9,3000,80,1.47,2013,778,37.5,100,517,564,1780,0.47,29734.0,-0.44,0.0
21.5,91.8,85.5,3000,80,1.47,2013,778,37.5,100,516,564,1790,0.47,29832.1,-0.40,0.0
21.6,91.8,86.2,3000,80,1.47,2012,778,37.5,100,516,563,1797,0.47,29857.3,-0.36,0.0
21.7,91.7,85.3,3000,80,1.46,2012,778,37.5,100,516,563,1807,0.47,29955.4,-0.41,0.0
21.8,91.7,84.4,3000,80,1.46,2011,778,37.5,100,515,563,1814,0.47,30024.1,-0.46,0.0
21.9,91.7,83.7,3000,80,1.46,2011,778,37.5,100,515,563,1826,0.47,30141.8,-0.51,0.0
22.0,91.6,84.5,3000,80,1.46,2010,778,37.5,100,515,563,1833,0.47,30210.5,-0.46,0.0
22.1,91.6,85.2,3000,80,1.46,2010,778,37.5,100,514,563,1843,0.47,30308.6,-0.41,0.0
22.2,91.6,85.9,3000,80,1.46,2009,778,37.5,100,514,563,1853,0.47,30406.7,-0.37,0.0
22.3,91.6,86.4,3000,80,1.45,2009,778,37.5,100,514,563,1860,0.47,30475.3,-0.33,0.0
22.4,91.5,86.9,3000,80,1.45,2008,778,37.5,100,513,562,1872,0.47,30549.7,-0.30,0.0
22.5,91.5,87.4,3000,80,1.45,2008,778,37.5,100,513,562,1879,0.47,30618.3,-0.27,0.0
22.6,91.4,86.3,3000,80,1.45,2007,778,37.5,100,513,562,1889,0.47,30716.4,-0.34,0.0
22.7,91.4,85.4,3000,80,1.45,2007,778,37.5,100,512,562,1898,0.47,30804.7,-0.40,0.0
22.8,91.3,84.5,3000,80,1.45,2006,778,37.5,100,512,562,1908,0.47,30902.8,-0.45,0.0
22.9,91.3,85.2,3000,80,1.44,2006,778,37.5,100,512,562,1917,0.47,30991.1,-0.40,0.0
23.0,91.3,85.8,3000,80,1.44,2005,778,37.5,100,511,562,1925,0.47,31069.6,-0.36,0.0
23.1,91.2,86.3,3000,80,1.44,2005,778,37.5,100,511,562,1934,0.47,31157.9,-0.33,0.0
23.3,91.2,86.8,3000,80,1.44,2004,778,37.5,100,511,562,1944,0.47,31256.0,-0.29,0.0
23.4,91.1,87.3,3000,80,1.44,2004,778,37.5,100,510,562,1953,0.47,31344.3,-0.26,0.0
23.5,91.1,87.7,3000,80,1.44,2003,777,37.5,100,510,562,1963,0.47,31442.4,-0.24,0.0
23.6,91.1,86.5,3000,80,1.43,2003,777,37.5,100,510,561,1972,0.47,31487.3,-0.31,0.0
23.7,91.0,85.5,3000,80,1.43,2002,777,37.5,100,509,561,1980,0.47,31565.8,-0.37,0.0
23.8,91.0,84.6,3000,80,1.43,2001,777,37.5,100,509,561,1991,0.47,31673.7,-0.42,0.0
23.9,90.9,85.3,3000,80,1.43,2001,777,37.5,100,509,561,2001,0.47,31771.8,-0.38,0.0
24.0,90.9,85.8,3000,80,1.43,2000,777,37.5,100,508,561,2008,0.47,31840.5,-0.34,0.0
24.1,90.9,86.3,3000,80,1.43,2000,777,37.4,100,508,561,2016,0.47,31919.0,-0.31,0.0
24.2,90.9,86.8,3000,80,1.43,1999,777,37.4,100,508,561,2025,0.47,32007.3,-0.28,0.0
24.3,90.9,87.2,3000,80,1.42,1999,776,37.4,100,508,561,2037,0.47,32125.0,-0.25,0.0
